Time(s),x(km),y(km),Velocity(m/s),Mach,Thrust(N),Acceleration(m/s2),Mass(kg),mdot(kg/s),Isp(s),Cd,DynPres(kPa)
0,0,0,0.447,0,0,0,15.161,0,0,0,0
0.0025,2.106e-07,1.1944e-06,0.447,0.0013139,382.17,15.019,15.161,0.19464,200.22,0.259,0.00012288
0.005,4.514e-07,2.56e-06,0.48513,0.001426,572.73,27.398,15.16,0.29169,200.22,0.259,0.0001224
0.0075,7.3248e-07,4.1541e-06,0.55468,0.0016304,713.67,36.556,15.159,0.36347,200.22,0.259,0.00014417
0.01,1.0644e-06,6.0367e-06,0.64748,0.0019032,861.28,46.149,15.158,0.43864,200.22,0.25901,0.00018847
0.0125,1.4519e-06,8.2342e-06,0.76463,0.0022475,926.69,50.403,15.157,0.47196,200.22,0.25901,0.00025682
0.015,1.8978e-06,1.0763e-05,0.89258,0.0026236,966.67,53.005,15.156,0.49232,200.22,0.25901,0.00035816
0.0175,2.4039e-06,1.3633e-05,1.0271,0.0030191,991.96,54.653,15.155,0.5052,200.22,0.25901,0.00048805
0.02,2.9715e-06,1.6852e-05,1.1659,0.0034269,1008.6,55.738,15.154,0.51366,200.22,0.25901,0.00064629
0.0225,3.6013e-06,2.0424e-05,1.3074,0.0038429,1019.7,56.466,15.152,0.51931,200.22,0.25901,0.00083268
0.025,4.2938e-06,2.4352e-05,1.4507,0.0042642,1027.2,56.959,15.151,0.52313,200.22,0.25901,0.0010471
0.0275,5.0495e-06,2.8637e-05,1.5953,0.0046892,1032.3,57.3,15.15,0.52576,200.22,0.25901,0.0012892
0.03,5.8687e-06,3.3283e-05,1.7408,0.0051168,1035.8,57.534,15.148,0.52755,200.22,0.25902,0.001559
0.0325,6.7513e-06,3.8289e-05,1.8868,0.0055461,1038.3,57.696,15.147,0.52878,200.22,0.25902,0.0018563
0.035,7.6978e-06,4.3656e-05,2.0333,0.0059766,1040,57.813,15.146,0.52965,200.22,0.25902,0.0021809
0.0375,8.708e-06,4.9385e-05,2.1801,0.006408,1041.1,57.89,15.144,0.5302,200.22,0.25902,0.0025326
0.04,9.782e-06,5.5477e-05,2.327,0.0068399,1041.9,57.95,15.143,0.53063,200.22,0.25902,0.0029114
0.0425,1.092e-05,6.193e-05,2.4741,0.0072723,1042.4,57.99,15.142,0.5309,200.22,0.25902,0.0033171
0.045,1.2122e-05,6.8747e-05,2.6213,0.0077051,1042.7,58.015,15.14,0.53105,200.22,0.25902,0.0037498
0.0475,1.3388e-05,7.5926e-05,2.7686,0.008138,1043,58.038,15.139,0.53118,200.22,0.25903,0.0042093
0.05,1.4718e-05,8.3468e-05,2.9159,0.008571,1043.1,58.054,15.138,0.53126,200.22,0.25903,0.0046956
0.0525,1.6111e-05,9.1373e-05,3.0633,0.0090042,1043.2,58.065,15.137,0.5313,200.22,0.25903,0.0052086
0.055,1.7569e-05,9.964e-05,3.2107,0.0094375,1043.3,58.074,15.135,0.53133,200.22,0.25903,0.0057484
0.0575,1.9091e-05,0.00010827,3.3581,0.0098708,1043.2,58.077,15.134,0.53131,200.22,0.25903,0.006315
0.06,2.0677e-05,0.00011727,3.5056,0.010304,1043.3,58.084,15.133,0.53132,200.22,0.25903,0.0069082
0.0625,2.2327e-05,0.00012662,3.653,0.010738,1043.2,58.088,15.131,0.5313,200.22,0.25903,0.0075281
0.065,2.4041e-05,0.00013634,3.8005,0.011171,1043.2,58.093,15.13,0.53129,200.22,0.25904,0.0081747
0.0675,2.5819e-05,0.00014642,3.948,0.011605,1043.2,58.098,15.129,0.53129,200.22,0.25904,0.008848
0.07,2.7661e-05,0.00015687,4.0954,0.012038,1043.1,58.098,15.127,0.53124,200.22,0.25904,0.0095479
0.0725,2.9567e-05,0.00016768,4.2429,0.012472,1043.1,58.103,15.126,0.53124,200.22,0.25904,0.010275
0.075,3.1537e-05,0.00017885,4.3904,0.012905,1043,58.105,15.125,0.53121,200.22,0.25904,0.011028
0.0775,3.3571e-05,0.00019039,4.5379,0.013339,1043,58.108,15.123,0.53119,200.22,0.25904,0.011808
0.08,3.5669e-05,0.00020229,4.6854,0.013772,1042.9,58.11,15.122,0.53116,200.22,0.25904,0.012615
0.0825,3.7831e-05,0.00021455,4.833,0.014206,1042.9,58.113,15.121,0.53114,200.22,0.25905,0.013448
0.085,4.0057e-05,0.00022717,4.9805,0.014639,1042.8,58.112,15.119,0.53108,200.22,0.25905,0.014308
0.0875,4.2347e-05,0.00024016,5.128,0.015073,1042.8,58.115,15.118,0.53107,200.22,0.25905,0.015195
0.09,4.4701e-05,0.00025351,5.2755,0.015507,1042.7,58.117,15.117,0.53104,200.22,0.25905,0.016109
0.0925,4.712e-05,0.00026723,5.4231,0.01594,1042.7,58.12,15.115,0.53102,200.22,0.25905,0.017049
0.095,4.9602e-05,0.00028131,5.5706,0.016374,1042.6,58.123,15.114,0.53099,200.22,0.25905,0.018016
0.0975,5.2149e-05,0.00029575,5.7182,0.016808,1042.6,58.125,15.113,0.53097,200.22,0.25905,0.019009
0.1,5.4759e-05,0.00031055,5.8657,0.017242,1042.5,58.123,15.111,0.53091,200.22,0.25906,0.02003
0.1025,5.7434e-05,0.00032572,6.0133,0.017675,1042.4,58.128,15.11,0.5309,200.22,0.25906,0.021077
0.105,6.0172e-05,0.00034125,6.1608,0.018109,1042.4,58.129,15.109,0.53087,200.22,0.25906,0.02215
0.1075,6.2975e-05,0.00035715,6.3084,0.018543,1042.3,58.132,15.107,0.53085,200.22,0.25906,0.023251
0.11,6.5842e-05,0.00037341,6.456,0.018977,1042.3,58.134,15.106,0.53082,200.22,0.25906,0.024378
0.1125,6.8772e-05,0.00039003,6.6035,0.01941,1042.2,58.137,15.105,0.5308,200.22,0.25906,0.025532
0.115,7.1767e-05,0.00040701,6.7511,0.019844,1042.1,58.135,15.103,0.53074,200.22,0.25906,0.026712
0.1175,7.4826e-05,0.00042436,6.8987,0.020278,1042.1,58.139,15.102,0.53073,200.22,0.25907,0.027919
0.12,7.7949e-05,0.00044207,7.0463,0.020712,1042,58.141,15.101,0.5307,200.22,0.25907,0.029153
0.1225,8.1136e-05,0.00046015,7.1939,0.021146,1042,58.144,15.099,0.53068,200.22,0.25907,0.030414
0.125,8.4387e-05,0.00047859,7.3415,0.021579,1041.9,58.146,15.098,0.53065,200.22,0.25907,0.031701
0.1275,8.7703e-05,0.00049739,7.4891,0.022013,1041.9,58.148,15.097,0.53063,200.22,0.25907,0.033016
0.13,9.1082e-05,0.00051655,7.6367,0.022447,1041.8,58.147,15.095,0.53057,200.22,0.25907,0.034356
0.1325,9.4525e-05,0.00053608,7.7843,0.022881,1041.8,58.151,15.094,0.53056,200.22,0.25907,0.035724
0.135,9.8033e-05,0.00055597,7.9319,0.023315,1041.7,58.155,15.093,0.53055,200.22,0.25908,0.037118
0.1375,0.0001016,0.00057623,8.0796,0.023749,1041.7,58.157,15.091,0.53052,200.22,0.25908,0.038539
0.14,0.00010524,0.00059685,8.2272,0.024183,1041.6,58.159,15.09,0.5305,200.22,0.25908,0.039987
0.1425,0.00010894,0.00061783,8.3748,0.024617,1041.6,58.162,15.089,0.53047,200.22,0.25908,0.041462
0.145,0.0001127,0.00063918,8.5225,0.025051,1041.5,58.161,15.087,0.53042,200.22,0.25908,0.042963
0.1475,0.00011653,0.00066089,8.6701,0.025485,1041.5,58.164,15.086,0.53041,200.22,0.25908,0.044492
0.15,0.00012042,0.00068296,8.8178,0.025919,1041.4,58.166,15.085,0.53038,200.22,0.25908,0.046046
0.1525,0.00012438,0.00070539,8.9654,0.026353,1041.4,58.168,15.083,0.53036,200.22,0.25909,0.047628
0.155,0.0001284,0.0007282,9.1131,0.026787,1041.3,58.171,15.082,0.53033,200.22,0.25909,0.049236
0.1575,0.00013248,0.00075136,9.2608,0.027221,1041.3,58.173,15.081,0.5303,200.22,0.25909,0.050871
0.16,0.00013663,0.00077489,9.4085,0.027655,1041.2,58.172,15.079,0.53025,200.22,0.25909,0.052533
0.1625,0.00014085,0.00079878,9.5561,0.028089,1041.1,58.175,15.078,0.53024,200.22,0.25909,0.054222
0.165,0.00014512,0.00082303,9.7038,0.028523,1041.1,58.177,15.077,0.53021,200.22,0.25909,0.055937
0.1675,0.00014946,0.00084765,9.8515,0.028957,1041,58.179,15.075,0.53019,200.22,0.2591,0.057679
0.17,0.00015387,0.00087263,9.9992,0.029392,1041,58.182,15.074,0.53016,200.22,0.2591,0.059448
0.1725,0.00015834,0.00089798,10.147,0.029826,1040.9,58.184,15.073,0.53014,200.22,0.2591,0.061244
0.175,0.00016287,0.00092369,10.295,0.03026,1040.8,58.183,15.071,0.53009,200.22,0.2591,0.063067
0.1775,0.00016747,0.00094976,10.442,0.030694,1040.8,58.186,15.07,0.53007,200.22,0.2591,0.064916
0.18,0.00017213,0.0009762,10.59,0.031128,1040.8,58.188,15.069,0.53005,200.22,0.2591,0.066792
0.1825,0.00017686,0.001003,10.738,0.031562,1040.7,58.19,15.068,0.53002,200.22,0.2591,0.068695
0.185,0.00018164,0.0010302,10.885,0.031997,1040.7,58.192,15.066,0.52999,200.22,0.25911,0.070624
0.1875,0.0001865,0.0010577,11.033,0.032431,1040.5,58.191,15.065,0.52994,200.22,0.25911,0.07258
0.19,0.00019142,0.0010856,11.181,0.032865,1040.5,58.194,15.064,0.52993,200.22,0.25911,0.074564
0.1925,0.0001964,0.0011138,11.329,0.033299,1040.5,58.196,15.062,0.5299,200.22,0.25911,0.076573
0.195,0.00020145,0.0011425,11.476,0.033734,1040.4,58.198,15.061,0.52988,200.22,0.25911,0.07861
0.1975,0.00020656,0.0011714,11.624,0.034168,1040.4,58.2,15.06,0.52985,200.22,0.25911,0.080673
0.2,0.00021173,0.0012008,11.772,0.034602,1040.3,58.203,15.058,0.52983,200.22,0.25911,0.082764
0.2025,0.00021697,0.0012305,11.92,0.035037,1040.2,58.201,15.057,0.52978,200.22,0.25912,0.084881
0.205,0.00022227,0.0012606,12.067,0.035471,1040.2,58.207,15.056,0.52978,200.22,0.25912,0.087025
0.2075,0.00022764,0.001291,12.215,0.035905,1040.2,58.208,15.054,0.52975,200.22,0.25912,0.089195
0.21,0.00023307,0.0013218,12.363,0.03634,1040.1,58.211,15.053,0.52973,200.22,0.25912,0.091393
0.2125,0.00023856,0.001353,12.511,0.036774,1040.1,58.213,15.052,0.5297,200.22,0.25912,0.093617
0.215,0.00024412,0.0013845,12.658,0.037208,1040,58.216,15.05,0.52968,200.22,0.25912,0.095868
0.2175,0.00024975,0.0014164,12.806,0.037643,1039.9,58.214,15.049,0.52963,200.22,0.25912,0.098146
0.22,0.00025544,0.0014486,12.954,0.038077,1039.9,58.217,15.048,0.52961,200.22,0.25913,0.10045
0.2225,0.00026119,0.0014813,13.102,0.038512,1039.8,58.219,15.046,0.52959,200.22,0.25913,0.10278
0.225,0.000267,0.0015143,13.25,0.038946,1039.8,58.222,15.045,0.52957,200.22,0.25913,0.10514
0.2275,0.00027288,0.0015476,13.397,0.03938,1039.8,58.223,15.044,0.52954,200.22,0.25913,0.10753
0.23,0.00027883,0.0015813,13.545,0.039815,1039.7,58.225,15.042,0.52952,200.22,0.25913,0.10994
0.2325,0.00028484,0.0016154,13.693,0.040249,1039.6,58.224,15.041,0.52946,200.22,0.25913,0.11238
0.235,0.00029091,0.0016498,13.841,0.040684,1039.6,58.227,15.04,0.52945,200.22,0.25913,0.11484
0.2375,0.00029705,0.0016846,13.989,0.041118,1039.5,58.229,15.038,0.52942,200.22,0.25914,0.11733
0.24,0.00030325,0.0017198,14.136,0.041553,1039.5,58.231,15.037,0.5294,200.22,0.25914,0.11985
0.2425,0.00030951,0.0017553,14.284,0.041987,1039.4,58.234,15.036,0.52938,200.22,0.25914,0.1224
0.245,0.00031584,0.0017912,14.432,0.042422,1039.4,58.235,15.034,0.52935,200.22,0.25914,0.12497
0.2475,0.00032224,0.0018275,14.58,0.042857,1039.3,58.233,15.033,0.5293,200.22,0.25914,0.12757
0.25,0.00032869,0.0018641,14.728,0.043291,1039.3,58.237,15.032,0.52929,200.22,0.25914,0.1302
0.2525,0.00033522,0.0019011,14.876,0.043726,1039.2,58.238,15.03,0.52926,200.22,0.25914,0.13285
0.255,0.0003418,0.0019385,15.023,0.04416,1039.2,58.241,15.029,0.52924,200.22,0.25915,0.13553
0.2575,0.00034845,0.0019762,15.171,0.044595,1039.1,58.243,15.028,0.52921,200.22,0.25915,0.13824
0.26,0.00035517,0.0020142,15.319,0.045029,1039.1,58.245,15.026,0.52919,200.22,0.25915,0.14097
0.2625,0.00036195,0.0020527,15.467,0.045464,1039,58.243,15.025,0.52913,200.22,0.25915,0.14373
0.265,0.00036879,0.0020915,15.615,0.045899,1038.9,58.247,15.024,0.52912,200.22,0.25915,0.14652
0.2675,0.0003757,0.0021307,15.763,0.046333,1038.9,58.248,15.022,0.52909,200.22,0.25915,0.14933
0.27,0.00038267,0.0021702,15.911,0.046768,1038.8,58.25,15.021,0.52907,200.22,0.25915,0.15217
0.2725,0.0003897,0.0022101,16.058,0.047203,1038.8,58.252,15.02,0.52905,200.22,0.25916,0.15504
0.275,0.0003968,0.0022504,16.206,0.047637,1038.8,58.254,15.019,0.52903,200.22,0.25916,0.15794
0.2775,0.00040397,0.002291,16.354,0.048072,1038.7,58.255,15.017,0.52899,200.22,0.25916,0.16086
0.28,0.00041119,0.002332,16.502,0.048507,1038.7,58.258,15.016,0.52898,200.22,0.25916,0.16381
0.2825,0.00041849,0.0023734,16.65,0.048942,1038.6,58.26,15.015,0.52895,200.22,0.25916,0.16678
0.285,0.00042584,0.0024151,16.798,0.049376,1038.5,58.261,15.013,0.52892,200.22,0.25916,0.16978
0.2875,0.00043326,0.0024572,16.946,0.049811,1038.5,58.264,15.012,0.5289,200.22,0.25916,0.17281
0.29,0.00044075,0.0024996,17.094,0.050246,1038.5,58.265,15.011,0.52888,200.22,0.25917,0.17587
0.2925,0.0004483,0.0025424,17.242,0.050681,1038.4,58.264,15.009,0.52883,200.22,0.25917,0.17895
0.295,0.00045591,0.0025856,17.389,0.051116,1038.3,58.267,15.008,0.52881,200.22,0.25917,0.18206
0.2975,0.00046359,0.0026291,17.537,0.05155,1038.3,58.269,15.007,0.52879,200.22,0.25917,0.1852
0.3,0.00047133,0.002673,17.685,0.051985,1038.2,58.271,15.005,0.52877,200.22,0.25917,0.18836
0.3025,0.00047914,0.0027173,17.833,0.05242,1038.2,58.273,15.004,0.52874,200.22,0.25917,0.19155
0.305,0.00048701,0.0027619,17.981,0.052855,1038.1,58.274,15.003,0.52872,200.22,0.25917,0.19477
0.3075,0.00049494,0.0028069,18.129,0.05329,1038,58.273,15.001,0.52866,200.22,0.25918,0.19801
0.31,0.00050294,0.0028523,18.277,0.053725,1038,58.275,15,0.52865,200.22,0.25918,0.20128
0.3125,0.000511,0.002898,18.425,0.054159,1038,58.277,14.999,0.52862,200.22,0.25918,0.20458
0.315,0.00051913,0.0029441,18.573,0.054594,1037.9,58.279,14.997,0.5286,200.22,0.25918,0.2079
0.3175,0.00052732,0.0029906,18.721,0.055029,1037.9,58.281,14.996,0.52858,200.22,0.25918,0.21126
0.32,0.00053558,0.0030374,18.869,0.055464,1037.8,58.283,14.995,0.52856,200.22,0.25918,0.21463
0.3225,0.0005439,0.0030846,19.017,0.055899,1037.7,58.281,14.993,0.5285,200.22,0.25918,0.21804
0.325,0.00055228,0.0031321,19.165,0.056334,1037.7,58.284,14.992,0.52849,200.22,0.25919,0.22147
0.3275,0.00056073,0.00318,19.313,0.056769,1037.6,58.285,14.991,0.52846,200.22,0.25919,0.22493
0.33,0.00056924,0.0032283,19.461,0.057204,1037.6,58.288,14.989,0.52844,200.22,0.25919,0.22841
0.3325,0.00057782,0.003277,19.609,0.057639,1037.5,58.289,14.988,0.52842,200.22,0.25919,0.23193
0.335,0.00058646,0.003326,19.757,0.058074,1037.5,58.291,14.987,0.52839,200.22,0.25919,0.23547
0.3375,0.00059516,0.0033753,19.905,0.058509,1037.4,58.29,14.985,0.52834,200.22,0.25919,0.23903
0.34,0.00060393,0.0034251,20.053,0.058944,1037.4,58.292,14.984,0.52833,200.22,0.25919,0.24262
0.3425,0.00061277,0.0034752,20.2,0.059379,1037.3,58.294,14.983,0.5283,200.22,0.2592,0.24624
0.345,0.00062166,0.0035256,20.348,0.059814,1037.3,58.296,14.982,0.52828,200.22,0.2592,0.24989
0.3475,0.00063063,0.0035765,20.496,0.060249,1037.2,58.298,14.98,0.52826,200.22,0.2592,0.25356
0.35,0.00063965,0.0036277,20.644,0.060684,1037.2,58.298,14.979,0.52822,200.22,0.2592,0.25726
0.3525,0.00064874,0.0036792,20.792,0.061119,1037.1,58.301,14.978,0.52821,200.22,0.2592,0.26099
0.355,0.0006579,0.0037311,20.94,0.061554,1037.1,58.302,14.976,0.52818,200.22,0.2592,0.26475
0.3575,0.00066712,0.0037834,21.088,0.061989,1037,58.304,14.975,0.52816,200.22,0.25921,0.26853
0.36,0.0006764,0.0038361,21.236,0.062424,1037,58.306,14.974,0.52814,200.22,0.25921,0.27233
0.3625,0.00068575,0.0038891,21.384,0.06286,1037,58.308,14.972,0.52811,200.22,0.25921,0.27617
0.365,0.00069516,0.0039425,21.532,0.063295,1036.8,58.305,14.971,0.52806,200.22,0.25921,0.28003
0.3675,0.00070465,0.0039962,21.68,0.06373,1036.8,58.309,14.97,0.52805,200.22,0.25921,0.28392
0.37,0.00071421,0.0040503,21.829,0.064167,1036.8,58.308,14.968,0.52802,200.22,0.25921,0.28783
0.3725,0.00072385,0.0041048,21.978,0.064605,1036.7,58.307,14.967,0.528,200.22,0.25921,0.2918
0.375,0.00073357,0.0041596,22.127,0.065042,1036.7,58.306,14.966,0.52798,200.22,0.25922,0.29579
0.3775,0.00074336,0.0042148,22.276,0.06548,1036.6,58.305,14.964,0.52795,200.22,0.25922,0.29981
0.38,0.00075322,0.0042704,22.425,0.065917,1036.5,58.301,14.963,0.5279,200.22,0.25922,0.30385
0.3825,0.00076317,0.0043263,22.573,0.066355,1036.5,58.302,14.962,0.52789,200.22,0.25922,0.30792
0.385,0.00077318,0.0043826,22.722,0.066792,1036.5,58.3,14.96,0.52786,200.22,0.25922,0.31202
0.3875,0.00078328,0.0044393,22.871,0.06723,1036.4,58.3,14.959,0.52784,200.22,0.25922,0.31615
0.39,0.00079345,0.0044963,23.02,0.067667,1036.4,58.299,14.958,0.52781,200.22,0.25922,0.3203
0.3925,0.0008037,0.0045537,23.169,0.068105,1036.3,58.298,14.956,0.52779,200.22,0.25923,0.32448
0.395,0.00081402,0.0046114,23.318,0.068543,1036.2,58.294,14.955,0.52774,200.22,0.25923,0.32869
0.3975,0.00082443,0.0046695,23.466,0.06898,1036.2,58.294,14.954,0.52773,200.22,0.25923,0.33292
0.4,0.0008349,0.004728,23.615,0.069418,1036.2,58.293,14.952,0.5277,200.22,0.25923,0.33719
0.4025,0.00084546,0.0047868,23.764,0.069855,1036.1,58.293,14.951,0.52768,200.22,0.25923,0.34148
0.405,0.00085609,0.0048461,23.913,0.070293,1036.1,58.292,14.95,0.52766,200.22,0.25923,0.34579
0.4075,0.0008668,0.0049056,24.062,0.070731,1036,58.292,14.949,0.52764,200.22,0.25923,0.35014
0.41,0.00087758,0.0049656,24.211,0.071168,1035.9,58.287,14.947,0.52758,200.22,0.25924,0.35451
0.4125,0.00088844,0.0050259,24.36,0.071606,1035.9,58.288,14.946,0.52757,200.22,0.25924,0.35891
0.415,0.00089938,0.0050865,24.508,0.072044,1035.8,58.287,14.945,0.52754,200.22,0.25924,0.36333
0.4175,0.0009104,0.0051476,24.657,0.072481,1035.8,58.286,14.943,0.52752,200.22,0.25924,0.36778
0.42,0.00092149,0.005209,24.806,0.072919,1035.8,58.285,14.942,0.5275,200.22,0.25924,0.37226
0.4225,0.00093267,0.0052707,24.955,0.073357,1035.7,58.284,14.941,0.52747,200.22,0.25924,0.37677
0.425,0.00094391,0.0053328,25.104,0.073794,1035.6,58.28,14.939,0.52742,200.22,0.25924,0.3813
0.4275,0.00095524,0.0053953,25.253,0.074232,1035.6,58.283,14.938,0.52743,200.22,0.25925,0.38587
0.43,0.00096664,0.0054582,25.402,0.07467,1035.6,58.282,14.937,0.5274,200.22,0.25925,0.39045
0.4325,0.00097813,0.0055214,25.551,0.075108,1035.5,58.281,14.935,0.52738,200.22,0.25925,0.39507
0.435,0.00098968,0.005585,25.7,0.075545,1035.5,58.28,14.934,0.52736,200.22,0.25925,0.39971
0.4375,0.0010013,0.0056489,25.849,0.075983,1035.4,58.28,14.933,0.52734,200.22,0.25925,0.40438
0.44,0.001013,0.0057132,25.997,0.076421,1035.3,58.275,14.931,0.52728,200.22,0.25925,0.40908
0.4425,0.0010248,0.0057779,26.146,0.076859,1035.3,58.276,14.93,0.52727,200.22,0.25925,0.4138
0.445,0.0010367,0.0058429,26.295,0.077297,1035.3,58.275,14.929,0.52724,200.22,0.25926,0.41856
0.4475,0.0010486,0.0059083,26.444,0.077734,1035.2,58.274,14.927,0.52722,200.22,0.25926,0.42333
0.45,0.0010607,0.0059741,26.593,0.078172,1035.2,58.274,14.926,0.5272,200.22,0.25926,0.42814
0.4525,0.0010728,0.0060402,26.742,0.07861,1035.1,58.273,14.925,0.52717,200.22,0.25926,0.43297
0.455,0.001085,0.0061067,26.891,0.079048,1035,58.268,14.923,0.52712,200.22,0.25926,0.43783
0.4575,0.0010972,0.0061736,27.04,0.079486,1035,58.269,14.922,0.52711,200.22,0.25926,0.44272
0.46,0.0011096,0.0062408,27.189,0.079924,1034.9,58.268,14.921,0.52709,200.22,0.25926,0.44764
0.4625,0.001122,0.0063084,27.338,0.080362,1034.9,58.267,14.92,0.52706,200.22,0.25927,0.45258
0.465,0.0011345,0.0063763,27.487,0.0808,1034.8,58.267,14.918,0.52704,200.22,0.25927,0.45755
0.4675,0.0011471,0.0064446,27.636,0.081237,1034.8,58.266,14.917,0.52701,200.22,0.25927,0.46254
0.47,0.0011597,0.0065133,27.785,0.081675,1034.7,58.262,14.916,0.52696,200.22,0.25927,0.46757
0.4725,0.0011725,0.0065824,27.934,0.082113,1034.7,58.262,14.914,0.52695,200.22,0.25927,0.47262
0.475,0.0011853,0.0066518,28.083,0.082551,1034.6,58.261,14.913,0.52693,200.22,0.25927,0.4777
0.4775,0.0011982,0.0067215,28.232,0.082989,1034.6,58.26,14.912,0.5269,200.22,0.25928,0.4828
0.48,0.0012111,0.0067917,28.381,0.083427,1034.5,58.26,14.91,0.52688,200.22,0.25928,0.48793
0.4825,0.0012242,0.0068622,28.529,0.083865,1034.5,58.259,14.909,0.52686,200.22,0.25928,0.49309
0.485,0.0012373,0.006933,28.678,0.084303,1034.4,58.255,14.908,0.52681,200.22,0.25928,0.49828
0.4875,0.0012505,0.0070043,28.827,0.084741,1034.4,58.256,14.906,0.5268,200.22,0.25928,0.50349
0.49,0.0012638,0.0070758,28.976,0.085179,1034.3,58.255,14.905,0.52677,200.22,0.25928,0.50873
0.4925,0.0012772,0.0071478,29.125,0.085617,1034.3,58.254,14.904,0.52674,200.22,0.25928,0.514
0.495,0.0012906,0.0072201,29.274,0.086055,1034.2,58.253,14.902,0.52672,200.22,0.25929,0.5193
0.4975,0.0013041,0.0072928,29.423,0.086493,1034.2,58.252,14.901,0.5267,200.22,0.25929,0.52462
0.5,0.0013177,0.0073658,29.572,0.086931,1034.1,58.248,14.9,0.52665,200.22,0.25929,0.52997
0.5025,0.0013314,0.0074393,29.721,0.087369,1034.1,58.249,14.898,0.52664,200.22,0.25929,0.53535
0.505,0.0013452,0.007513,29.87,0.087807,1034,58.25,14.897,0.52663,200.22,0.25929,0.54075
0.5075,0.001359,0.0075872,30.019,0.088245,1034,58.249,14.896,0.52661,200.22,0.25929,0.54618
0.51,0.001373,0.0076617,30.168,0.088683,1034,58.248,14.894,0.52658,200.22,0.25929,0.55164
0.5125,0.001387,0.0077365,30.317,0.089122,1033.9,58.248,14.893,0.52656,200.22,0.2593,0.55713
0.515,0.0014011,0.0078118,30.466,0.08956,1033.8,58.243,14.892,0.52651,200.22,0.2593,0.56264
0.5175,0.0014152,0.0078874,30.615,0.089998,1033.8,58.244,14.891,0.5265,200.22,0.2593,0.56818
0.52,0.0014295,0.0079633,30.764,0.090436,1033.7,58.243,14.889,0.52647,200.22,0.2593,0.57375
0.5225,0.0014438,0.0080397,30.913,0.090874,1033.7,58.242,14.888,0.52645,200.22,0.2593,0.57934
