Time(s),x(km),y(km),Velocity(m/s),Mach,Thrust(N),Acceleration(m/s2),Mass(kg),mdot(kg/s),Isp(s),Cd,DynPres(kPa)
0,0,0,0.447,0,0,0,15.161,0,0,0,0
0.0025,1.6884e-07,1.2014e-06,0.447,0.0013139,382.17,15.156,15.161,0.19464,200.22,0.259,0.00012288
0.005,3.6193e-07,2.5752e-06,0.48526,0.0014264,572.73,27.605,15.16,0.29169,200.22,0.259,0.0001224
0.0075,5.8735e-07,4.1792e-06,0.55495,0.0016312,713.67,36.813,15.159,0.36347,200.22,0.259,0.00014425
0.01,8.5358e-07,6.0735e-06,0.64789,0.0019044,861.28,46.459,15.158,0.43864,200.22,0.25901,0.00018866
0.0125,1.1644e-06,8.285e-06,0.76518,0.0022491,926.69,50.736,15.157,0.47196,200.22,0.25901,0.00025714
0.015,1.522e-06,1.083e-05,0.89327,0.0026256,966.67,53.353,15.156,0.49232,200.22,0.25901,0.00035867
0.0175,1.928e-06,1.3719e-05,1.028,0.0030216,991.96,55.011,15.155,0.5052,200.22,0.25901,0.0004888
0.02,2.3833e-06,1.6958e-05,1.1668,0.0034298,1008.6,56.102,15.154,0.51366,200.22,0.25901,0.00064733
0.0225,2.8885e-06,2.0552e-05,1.3085,0.0038461,1019.7,56.833,15.152,0.51931,200.22,0.25901,0.00083405
0.025,3.444e-06,2.4505e-05,1.452,0.0042678,1027.2,57.329,15.151,0.52313,200.22,0.25901,0.0010488
0.0275,4.0502e-06,2.8819e-05,1.5967,0.0046932,1032.3,57.672,15.15,0.52576,200.22,0.25901,0.0012914
0.03,4.7073e-06,3.3494e-05,1.7423,0.0051212,1035.8,57.907,15.148,0.52755,200.22,0.25902,0.0015617
0.0325,5.4153e-06,3.8532e-05,1.8885,0.0055509,1038.3,58.071,15.147,0.52878,200.22,0.25902,0.0018595
0.035,6.1745e-06,4.3934e-05,2.0351,0.0059818,1040,58.188,15.146,0.52965,200.22,0.25902,0.0021847
0.0375,6.9849e-06,4.97e-05,2.182,0.0064136,1041.1,58.265,15.144,0.5302,200.22,0.25902,0.0025371
0.04,7.8465e-06,5.583e-05,2.3291,0.006846,1041.9,58.325,15.143,0.53063,200.22,0.25902,0.0029165
0.0425,8.7593e-06,6.2326e-05,2.4763,0.0072788,1042.4,58.366,15.142,0.5309,200.22,0.25902,0.003323
0.045,9.7235e-06,6.9186e-05,2.6237,0.0077119,1042.7,58.391,15.14,0.53105,200.22,0.25902,0.0037565
0.0475,1.0739e-05,7.6411e-05,2.7711,0.0081452,1043,58.414,15.139,0.53118,200.22,0.25903,0.0042168
0.05,1.1806e-05,8.4002e-05,2.9185,0.0085787,1043.1,58.43,15.138,0.53126,200.22,0.25903,0.004704
0.0525,1.2924e-05,9.1958e-05,3.0661,0.0090123,1043.2,58.442,15.137,0.5313,200.22,0.25903,0.005218
0.055,1.4093e-05,0.00010028,3.2136,0.009446,1043.3,58.451,15.135,0.53133,200.22,0.25903,0.0057587
0.0575,1.5314e-05,0.00010897,3.3612,0.0098797,1043.2,58.454,15.134,0.53131,200.22,0.25903,0.0063263
0.06,1.6586e-05,0.00011802,3.5087,0.010313,1043.3,58.461,15.133,0.53132,200.22,0.25903,0.0069206
0.0625,1.791e-05,0.00012743,3.6563,0.010747,1043.2,58.465,15.131,0.5313,200.22,0.25903,0.0075416
0.065,1.9285e-05,0.00013722,3.8039,0.011181,1043.2,58.469,15.13,0.53129,200.22,0.25904,0.0081894
0.0675,2.0711e-05,0.00014737,3.9515,0.011615,1043.2,58.475,15.129,0.53129,200.22,0.25904,0.008864
0.07,2.2188e-05,0.00015788,4.0992,0.012049,1043.1,58.474,15.127,0.53124,200.22,0.25904,0.0095652
0.0725,2.3717e-05,0.00016876,4.2468,0.012483,1043.1,58.479,15.126,0.53124,200.22,0.25904,0.010293
0.075,2.5298e-05,0.00018,4.3944,0.012917,1043,58.481,15.125,0.53121,200.22,0.25904,0.011048
0.0775,2.6929e-05,0.00019161,4.542,0.013351,1043,58.484,15.123,0.53119,200.22,0.25904,0.011829
0.08,2.8612e-05,0.00020359,4.6897,0.013785,1042.9,58.487,15.122,0.53116,200.22,0.25904,0.012638
0.0825,3.0347e-05,0.00021593,4.8373,0.014219,1042.9,58.49,15.121,0.53114,200.22,0.25905,0.013473
0.085,3.2133e-05,0.00022864,4.985,0.014653,1042.8,58.488,15.119,0.53108,200.22,0.25905,0.014334
0.0875,3.397e-05,0.00024171,5.1327,0.015087,1042.8,58.492,15.118,0.53107,200.22,0.25905,0.015223
0.09,3.5859e-05,0.00025515,5.2803,0.015521,1042.7,58.494,15.117,0.53104,200.22,0.25905,0.016138
0.0925,3.7798e-05,0.00026895,5.428,0.015955,1042.7,58.497,15.115,0.53102,200.22,0.25905,0.01708
0.095,3.979e-05,0.00028312,5.5757,0.016389,1042.6,58.499,15.114,0.53099,200.22,0.25905,0.018048
0.0975,4.1833e-05,0.00029765,5.7234,0.016823,1042.6,58.502,15.113,0.53097,200.22,0.25905,0.019044
0.1,4.3927e-05,0.00031255,5.8711,0.017257,1042.5,58.5,15.111,0.53091,200.22,0.25906,0.020066
0.1025,4.6072e-05,0.00032782,6.0187,0.017691,1042.4,58.504,15.11,0.5309,200.22,0.25906,0.021115
0.105,4.8269e-05,0.00034345,6.1664,0.018126,1042.4,58.506,15.109,0.53087,200.22,0.25906,0.022191
0.1075,5.0517e-05,0.00035945,6.3141,0.01856,1042.3,58.509,15.107,0.53085,200.22,0.25906,0.023293
0.11,5.2817e-05,0.00037581,6.4619,0.018994,1042.3,58.511,15.106,0.53082,200.22,0.25906,0.024422
0.1125,5.5168e-05,0.00039254,6.6096,0.019428,1042.2,58.514,15.105,0.5308,200.22,0.25906,0.025578
0.115,5.7571e-05,0.00040964,6.7573,0.019862,1042.1,58.512,15.103,0.53074,200.22,0.25906,0.026761
0.1175,6.0025e-05,0.0004271,6.905,0.020296,1042.1,58.516,15.102,0.53073,200.22,0.25907,0.02797
0.12,6.253e-05,0.00044492,7.0527,0.020731,1042,58.518,15.101,0.5307,200.22,0.25907,0.029207
0.1225,6.5086e-05,0.00046311,7.2005,0.021165,1042,58.52,15.099,0.53068,200.22,0.25907,0.03047
0.125,6.7695e-05,0.00048167,7.3482,0.021599,1041.9,58.523,15.098,0.53065,200.22,0.25907,0.03176
0.1275,7.0354e-05,0.0005006,7.496,0.022033,1041.9,58.525,15.097,0.53063,200.22,0.25907,0.033076
0.13,7.3065e-05,0.00051988,7.6437,0.022468,1041.8,58.523,15.095,0.53057,200.22,0.25907,0.034419
0.1325,7.5827e-05,0.00053954,7.7915,0.022902,1041.8,58.528,15.094,0.53056,200.22,0.25907,0.03579
0.135,7.8641e-05,0.00055956,7.9392,0.023336,1041.7,58.532,15.093,0.53055,200.22,0.25908,0.037186
0.1375,8.1506e-05,0.00057995,8.087,0.023771,1041.7,58.534,15.091,0.53052,200.22,0.25908,0.03861
0.14,8.4423e-05,0.0006007,8.2347,0.024205,1041.6,58.536,15.09,0.5305,200.22,0.25908,0.040061
0.1425,8.7391e-05,0.00062182,8.3825,0.02464,1041.6,58.538,15.089,0.53047,200.22,0.25908,0.041538
0.145,9.041e-05,0.0006433,8.5303,0.025074,1041.5,58.537,15.087,0.53042,200.22,0.25908,0.043042
0.1475,9.3481e-05,0.00066515,8.6781,0.025508,1041.5,58.541,15.086,0.53041,200.22,0.25908,0.044573
0.15,9.6603e-05,0.00068737,8.8259,0.025943,1041.4,58.542,15.085,0.53038,200.22,0.25909,0.046131
0.1525,9.9777e-05,0.00070995,8.9737,0.026377,1041.4,58.545,15.083,0.53036,200.22,0.25909,0.047715
0.155,0.000103,0.0007329,9.1215,0.026812,1041.3,58.548,15.082,0.53033,200.22,0.25909,0.049327
0.1575,0.00010628,0.00075621,9.2693,0.027246,1041.3,58.55,15.081,0.5303,200.22,0.25909,0.050965
0.16,0.00010961,0.00077989,9.4171,0.027681,1041.2,58.549,15.079,0.53025,200.22,0.25909,0.05263
0.1625,0.00011299,0.00080394,9.5649,0.028115,1041.1,58.552,15.078,0.53024,200.22,0.25909,0.054322
0.165,0.00011642,0.00082835,9.7127,0.02855,1041.1,58.554,15.077,0.53021,200.22,0.25909,0.05604
0.1675,0.0001199,0.00085312,9.8606,0.028984,1041,58.556,15.075,0.53019,200.22,0.2591,0.057786
0.17,0.00012343,0.00087827,10.008,0.029419,1041,58.559,15.074,0.53016,200.22,0.2591,0.059558
0.1725,0.00012702,0.00090378,10.156,0.029853,1040.9,58.561,15.073,0.53014,200.22,0.2591,0.061357
0.175,0.00013065,0.00092965,10.304,0.030288,1040.8,58.559,15.071,0.53009,200.22,0.2591,0.063183
0.1775,0.00013434,0.00095589,10.452,0.030722,1040.8,58.563,15.07,0.53007,200.22,0.2591,0.065035
0.18,0.00013808,0.0009825,10.6,0.031157,1040.8,58.565,15.069,0.53005,200.22,0.2591,0.066915
0.1825,0.00014187,0.0010095,10.748,0.031591,1040.7,58.567,15.068,0.53002,200.22,0.2591,0.068821
0.185,0.00014571,0.0010368,10.895,0.032026,1040.7,58.569,15.066,0.52999,200.22,0.25911,0.070754
0.1875,0.00014961,0.0010645,11.043,0.032461,1040.5,58.568,15.065,0.52994,200.22,0.25911,0.072714
0.19,0.00015355,0.0010926,11.191,0.032895,1040.5,58.571,15.064,0.52993,200.22,0.25911,0.074701
0.1925,0.00015755,0.001121,11.339,0.03333,1040.5,58.573,15.062,0.5299,200.22,0.25911,0.076714
0.195,0.0001616,0.0011498,11.487,0.033765,1040.4,58.575,15.061,0.52988,200.22,0.25911,0.078755
0.1975,0.0001657,0.001179,11.635,0.034199,1040.4,58.577,15.06,0.52985,200.22,0.25911,0.080822
0.2,0.00016985,0.0012085,11.783,0.034634,1040.3,58.58,15.058,0.52983,200.22,0.25911,0.082916
0.2025,0.00017405,0.0012384,11.931,0.035069,1040.2,58.578,15.057,0.52978,200.22,0.25912,0.085037
0.205,0.00017831,0.0012687,12.078,0.035503,1040.2,58.584,15.056,0.52978,200.22,0.25912,0.087185
0.2075,0.00018261,0.0012993,12.226,0.035938,1040.2,58.586,15.054,0.52975,200.22,0.25912,0.089359
0.21,0.00018697,0.0013303,12.374,0.036373,1040.1,58.588,15.053,0.52973,200.22,0.25912,0.091561
0.2125,0.00019138,0.0013617,12.522,0.036808,1040.1,58.59,15.052,0.5297,200.22,0.25912,0.093789
0.215,0.00019584,0.0013934,12.67,0.037243,1040,58.593,15.05,0.52968,200.22,0.25912,0.096045
0.2175,0.00020035,0.0014255,12.818,0.037677,1039.9,58.591,15.049,0.52963,200.22,0.25912,0.098327
0.22,0.00020491,0.001458,12.966,0.038112,1039.9,58.594,15.048,0.52961,200.22,0.25913,0.10064
0.2225,0.00020952,0.0014908,13.114,0.038547,1039.8,58.596,15.046,0.52959,200.22,0.25913,0.10297
0.225,0.00021419,0.001524,13.262,0.038982,1039.8,58.599,15.045,0.52957,200.22,0.25913,0.10533
0.2275,0.00021891,0.0015576,13.41,0.039417,1039.8,58.601,15.044,0.52954,200.22,0.25913,0.10772
0.23,0.00022368,0.0015915,13.558,0.039852,1039.7,58.603,15.042,0.52952,200.22,0.25913,0.11014
0.2325,0.0002285,0.0016258,13.706,0.040286,1039.6,58.601,15.041,0.52946,200.22,0.25913,0.11258
0.235,0.00023337,0.0016605,13.854,0.040721,1039.6,58.604,15.04,0.52945,200.22,0.25913,0.11505
0.2375,0.00023829,0.0016955,14.001,0.041156,1039.5,58.606,15.038,0.52942,200.22,0.25914,0.11755
0.24,0.00024326,0.0017309,14.149,0.041591,1039.5,58.608,15.037,0.5294,200.22,0.25914,0.12007
0.2425,0.00024829,0.0017667,14.297,0.042026,1039.4,58.611,15.036,0.52938,200.22,0.25914,0.12262
0.245,0.00025337,0.0018028,14.445,0.042461,1039.4,58.613,15.034,0.52935,200.22,0.25914,0.1252
0.2475,0.0002585,0.0018393,14.593,0.042896,1039.3,58.61,15.033,0.5293,200.22,0.25914,0.12781
0.25,0.00026368,0.0018762,14.741,0.043331,1039.3,58.614,15.032,0.52929,200.22,0.25914,0.13044
0.2525,0.00026891,0.0019134,14.889,0.043766,1039.2,58.616,15.03,0.52926,200.22,0.25914,0.1331
0.255,0.00027419,0.001951,15.037,0.044201,1039.2,58.618,15.029,0.52924,200.22,0.25915,0.13578
0.2575,0.00027953,0.0019889,15.185,0.044636,1039.1,58.62,15.028,0.52921,200.22,0.25915,0.13849
0.26,0.00028491,0.0020273,15.333,0.045071,1039.1,58.622,15.026,0.52919,200.22,0.25915,0.14123
0.2625,0.00029035,0.002066,15.481,0.045506,1039,58.62,15.025,0.52913,200.22,0.25915,0.144
0.265,0.00029584,0.002105,15.629,0.045941,1038.9,58.624,15.024,0.52912,200.22,0.25915,0.14679
0.2675,0.00030138,0.0021445,15.777,0.046376,1038.9,58.625,15.022,0.52909,200.22,0.25915,0.14961
0.27,0.00030698,0.0021842,15.925,0.046811,1038.8,58.628,15.021,0.52907,200.22,0.25915,0.15246
0.2725,0.00031262,0.0022244,16.073,0.047246,1038.8,58.629,15.02,0.52905,200.22,0.25916,0.15533
0.275,0.00031831,0.0022649,16.221,0.047681,1038.8,58.632,15.019,0.52903,200.22,0.25916,0.15823
0.2775,0.00032406,0.0023058,16.369,0.048117,1038.7,58.632,15.017,0.52899,200.22,0.25916,0.16116
0.28,0.00032986,0.0023471,16.517,0.048552,1038.7,58.635,15.016,0.52898,200.22,0.25916,0.16411
0.2825,0.00033571,0.0023887,16.665,0.048987,1038.6,58.637,15.015,0.52895,200.22,0.25916,0.16709
0.285,0.00034161,0.0024307,16.813,0.049422,1038.5,58.639,15.013,0.52892,200.22,0.25916,0.1701
0.2875,0.00034756,0.002473,16.961,0.049857,1038.5,58.641,15.012,0.5289,200.22,0.25916,0.17313
0.29,0.00035357,0.0025158,17.109,0.050292,1038.5,58.643,15.011,0.52888,200.22,0.25917,0.17619
0.2925,0.00035962,0.0025589,17.257,0.050728,1038.4,58.641,15.009,0.52883,200.22,0.25917,0.17928
0.295,0.00036573,0.0026023,17.406,0.051163,1038.3,58.644,15.008,0.52881,200.22,0.25917,0.1824
0.2975,0.00037189,0.0026461,17.554,0.051598,1038.3,58.646,15.007,0.52879,200.22,0.25917,0.18554
0.3,0.0003781,0.0026903,17.702,0.052033,1038.2,58.648,15.005,0.52877,200.22,0.25917,0.18871
0.3025,0.00038436,0.0027349,17.85,0.052468,1038.2,58.65,15.004,0.52874,200.22,0.25917,0.1919
0.305,0.00039068,0.0027798,17.998,0.052904,1038.1,58.652,15.003,0.52872,200.22,0.25917,0.19513
0.3075,0.00039704,0.0028251,18.146,0.053339,1038,58.65,15.001,0.52866,200.22,0.25918,0.19838
0.31,0.00040346,0.0028708,18.294,0.053774,1038,58.653,15,0.52865,200.22,0.25918,0.20165
0.3125,0.00040993,0.0029168,18.442,0.054209,1038,58.654,14.999,0.52862,200.22,0.25918,0.20496
0.315,0.00041645,0.0029632,18.59,0.054645,1037.9,58.657,14.997,0.5286,200.22,0.25918,0.20829
0.3175,0.00042302,0.0030099,18.738,0.05508,1037.9,58.658,14.996,0.52858,200.22,0.25918,0.21165
0.32,0.00042964,0.003057,18.886,0.055515,1037.8,58.661,14.995,0.52856,200.22,0.25918,0.21503
0.3225,0.00043631,0.0031045,19.034,0.055951,1037.7,58.658,14.993,0.5285,200.22,0.25919,0.21844
0.325,0.00044304,0.0031524,19.182,0.056386,1037.7,58.662,14.992,0.52849,200.22,0.25919,0.22188
0.3275,0.00044982,0.0032006,19.33,0.056821,1037.6,58.663,14.991,0.52846,200.22,0.25919,0.22534
0.33,0.00045665,0.0032492,19.479,0.057257,1037.6,58.665,14.989,0.52844,200.22,0.25919,0.22884
0.3325,0.00046353,0.0032982,19.627,0.057692,1037.5,58.667,14.988,0.52842,200.22,0.25919,0.23235
0.335,0.00047046,0.0033475,19.775,0.058128,1037.5,58.669,14.987,0.52839,200.22,0.25919,0.2359
0.3375,0.00047744,0.0033972,19.923,0.058563,1037.4,58.667,14.985,0.52834,200.22,0.25919,0.23947
0.34,0.00048448,0.0034472,20.071,0.058998,1037.4,58.67,14.984,0.52833,200.22,0.2592,0.24307
0.3425,0.00049156,0.0034977,20.219,0.059434,1037.3,58.671,14.983,0.5283,200.22,0.2592,0.2467
0.345,0.0004987,0.0035484,20.367,0.059869,1037.3,58.674,14.982,0.52828,200.22,0.2592,0.25035
0.3475,0.00050589,0.0035996,20.515,0.060305,1037.2,58.675,14.98,0.52826,200.22,0.2592,0.25403
0.35,0.00051313,0.0036511,20.664,0.06074,1037.2,58.675,14.979,0.52822,200.22,0.2592,0.25774
0.3525,0.00052042,0.003703,20.812,0.061176,1037.1,58.678,14.978,0.52821,200.22,0.2592,0.26147
0.355,0.00052777,0.0037553,20.96,0.061611,1037.1,58.68,14.976,0.52818,200.22,0.2592,0.26523
0.3575,0.00053516,0.0038079,21.108,0.062047,1037,58.682,14.975,0.52816,200.22,0.25921,0.26902
0.36,0.00054261,0.0038609,21.256,0.062482,1037,58.683,14.974,0.52814,200.22,0.25921,0.27284
0.3625,0.00055011,0.0039142,21.404,0.062918,1037,58.685,14.972,0.52811,200.22,0.25921,0.27668
0.365,0.00055766,0.003968,21.552,0.063353,1036.8,58.683,14.971,0.52806,200.22,0.25921,0.28055
0.3675,0.00056527,0.004022,21.701,0.063789,1036.8,58.686,14.97,0.52805,200.22,0.25921,0.28444
0.37,0.00057294,0.0040765,21.849,0.064226,1036.8,58.686,14.968,0.52802,200.22,0.25921,0.28837
0.3725,0.00058067,0.0041313,21.998,0.064663,1036.7,58.686,14.967,0.528,200.22,0.25921,0.29233
0.375,0.00058847,0.0041865,22.147,0.0651,1036.7,58.686,14.966,0.52798,200.22,0.25922,0.29632
0.3775,0.00059632,0.0042421,22.295,0.065537,1036.6,58.686,14.964,0.52795,200.22,0.25922,0.30034
0.38,0.00060424,0.004298,22.444,0.065974,1036.5,58.683,14.963,0.5279,200.22,0.25922,0.30438
0.3825,0.00061221,0.0043543,22.593,0.066411,1036.5,58.685,14.962,0.52789,200.22,0.25922,0.30845
0.385,0.00062025,0.0044109,22.741,0.066848,1036.5,58.684,14.96,0.52786,200.22,0.25922,0.31255
0.3875,0.00062835,0.004468,22.89,0.067285,1036.4,58.684,14.959,0.52784,200.22,0.25922,0.31668
0.39,0.00063651,0.0045254,23.039,0.067722,1036.4,58.684,14.958,0.52781,200.22,0.25922,0.32083
0.3925,0.00064473,0.0045831,23.187,0.068159,1036.3,58.685,14.956,0.52779,200.22,0.25923,0.32501
0.395,0.00065301,0.0046412,23.336,0.068597,1036.2,58.681,14.955,0.52774,200.22,0.25923,0.32922
0.3975,0.00066135,0.0046997,23.485,0.069034,1036.2,58.682,14.954,0.52773,200.22,0.25923,0.33345
0.4,0.00066976,0.0047586,23.633,0.069471,1036.2,58.682,14.952,0.5277,200.22,0.25923,0.33771
0.4025,0.00067822,0.0048178,23.782,0.069908,1036.1,58.682,14.951,0.52768,200.22,0.25923,0.342
0.405,0.00068675,0.0048774,23.931,0.070345,1036.1,58.682,14.95,0.52766,200.22,0.25923,0.34631
0.4075,0.00069534,0.0049374,24.08,0.070782,1036,58.683,14.949,0.52764,200.22,0.25923,0.35066
0.41,0.00070399,0.0049977,24.228,0.07122,1035.9,58.679,14.947,0.52758,200.22,0.25924,0.35503
0.4125,0.0007127,0.0050584,24.377,0.071657,1035.9,58.68,14.946,0.52757,200.22,0.25924,0.35942
0.415,0.00072148,0.0051194,24.526,0.072094,1035.8,58.68,14.945,0.52754,200.22,0.25924,0.36385
0.4175,0.00073031,0.0051809,24.674,0.072531,1035.8,58.68,14.943,0.52752,200.22,0.25924,0.3683
0.42,0.00073921,0.0052427,24.823,0.072969,1035.8,58.68,14.942,0.5275,200.22,0.25924,0.37278
0.4225,0.00074817,0.0053048,24.972,0.073406,1035.7,58.68,14.941,0.52747,200.22,0.25924,0.37728
0.425,0.0007572,0.0053673,25.121,0.073843,1035.6,58.677,14.939,0.52742,200.22,0.25924,0.38181
0.4275,0.00076628,0.0054302,25.269,0.07428,1035.6,58.68,14.938,0.52743,200.22,0.25925,0.38637
0.43,0.00077543,0.0054935,25.418,0.074718,1035.6,58.68,14.937,0.5274,200.22,0.25925,0.39096
0.4325,0.00078464,0.0055571,25.567,0.075155,1035.5,58.681,14.935,0.52738,200.22,0.25925,0.39557
0.435,0.00079391,0.0056211,25.716,0.075592,1035.5,58.68,14.934,0.52736,200.22,0.25925,0.40021
0.4375,0.00080324,0.0056855,25.864,0.07603,1035.4,58.681,14.933,0.52734,200.22,0.25925,0.40488
0.44,0.00081264,0.0057502,26.013,0.076467,1035.3,58.677,14.931,0.52728,200.22,0.25925,0.40958
0.4425,0.0008221,0.0058153,26.162,0.076904,1035.3,58.678,14.93,0.52727,200.22,0.25925,0.4143
0.445,0.00083162,0.0058808,26.311,0.077342,1035.3,58.678,14.929,0.52724,200.22,0.25926,0.41905
0.4475,0.0008412,0.0059466,26.459,0.077779,1035.2,58.678,14.927,0.52722,200.22,0.25926,0.42383
0.45,0.00085085,0.0060128,26.608,0.078217,1035.2,58.678,14.926,0.5272,200.22,0.25926,0.42863
0.4525,0.00086056,0.0060793,26.757,0.078654,1035.1,58.678,14.925,0.52717,200.22,0.25926,0.43346
0.455,0.00087033,0.0061463,26.906,0.079091,1035,58.675,14.923,0.52712,200.22,0.25926,0.43832
0.4575,0.00088016,0.0062136,27.055,0.079529,1035,58.676,14.922,0.52711,200.22,0.25926,0.4432
0.46,0.00089006,0.0062812,27.203,0.079966,1034.9,58.676,14.921,0.52709,200.22,0.25927,0.44812
0.4625,0.00090002,0.0063492,27.352,0.080404,1034.9,58.676,14.92,0.52706,200.22,0.25927,0.45306
0.465,0.00091005,0.0064176,27.501,0.080841,1034.8,58.676,14.918,0.52704,200.22,0.25927,0.45802
0.4675,0.00092013,0.0064864,27.65,0.081278,1034.8,58.676,14.917,0.52701,200.22,0.25927,0.46302
0.47,0.00093028,0.0065555,27.798,0.081716,1034.7,58.672,14.916,0.52696,200.22,0.25927,0.46804
0.4725,0.0009405,0.006625,27.947,0.082153,1034.7,58.674,14.914,0.52695,200.22,0.25927,0.47309
0.475,0.00095077,0.0066949,28.096,0.082591,1034.6,58.674,14.913,0.52693,200.22,0.25927,0.47816
0.4775,0.00096111,0.0067651,28.245,0.083028,1034.6,58.673,14.912,0.5269,200.22,0.25928,0.48326
0.48,0.00097151,0.0068357,28.394,0.083466,1034.5,58.674,14.91,0.52688,200.22,0.25928,0.48839
0.4825,0.00098198,0.0069067,28.542,0.083903,1034.5,58.674,14.909,0.52686,200.22,0.25928,0.49355
0.485,0.00099251,0.006978,28.691,0.084341,1034.4,58.67,14.908,0.52681,200.22,0.25928,0.49873
0.4875,0.0010031,0.0070497,28.84,0.084778,1034.4,58.672,14.906,0.5268,200.22,0.25928,0.50394
0.49,0.0010138,0.0071217,28.989,0.085216,1034.3,58.671,14.905,0.52677,200.22,0.25928,0.50918
0.4925,0.0010245,0.0071942,29.138,0.085653,1034.3,58.671,14.904,0.52674,200.22,0.25928,0.51444
0.495,0.0010353,0.007267,29.287,0.086091,1034.2,58.671,14.902,0.52672,200.22,0.25929,0.51974
0.4975,0.0010461,0.0073401,29.435,0.086529,1034.2,58.671,14.901,0.5267,200.22,0.25929,0.52505
0.5,0.001057,0.0074137,29.584,0.086966,1034.1,58.667,14.9,0.52665,200.22,0.25929,0.5304
0.5025,0.001068,0.0074875,29.733,0.087404,1034.1,58.669,14.898,0.52664,200.22,0.25929,0.53577
0.505,0.001079,0.0075618,29.882,0.087841,1034,58.671,14.897,0.52663,200.22,0.25929,0.54117
0.5075,0.0010901,0.0076364,30.031,0.088279,1034,58.671,14.896,0.52661,200.22,0.25929,0.5466
0.51,0.0011013,0.0077114,30.18,0.088717,1034,58.671,14.894,0.52658,200.22,0.25929,0.55206
0.5125,0.0011125,0.0077868,30.328,0.089154,1033.9,58.671,14.893,0.52656,200.22,0.2593,0.55754
0.515,0.0011238,0.0078625,30.477,0.089592,1033.8,58.667,14.892,0.52651,200.22,0.2593,0.56305
0.5175,0.0011352,0.0079386,30.626,0.090029,1033.8,58.668,14.891,0.5265,200.22,0.2593,0.56858
0.52,0.0011466,0.0080151,30.775,0.090467,1033.7,58.668,14.889,0.52647,200.22,0.2593,0.57415
0.5225,0.0011581,0.0080919,30.924,0.090905,1033.7,58.668,14.888,0.52645,200.22,0.2593,0.57974
