Time(s),x(km),y(km),Velocity(m/s),Mach,Thrust(N),Acceleration(m/s2),Mass(kg),mdot(kg/s),Isp(s),Cd,DynPres(kPa)
0,0,0,0.447,0,0,0,306,0,0,0,0
1,0.0032685,0.035003,65.153,0.19158,22942,66.91,296.48,10.019,262.63,0.43516,2.329
2,0.014466,0.1379,131.64,0.38755,22001,65.326,286.46,10.019,252.71,0.43006,9.9644
3,0.034419,0.30619,197.39,0.58222,21539,64.869,276.44,10.019,247.44,0.42447,22.433
4,0.063627,0.53937,262.76,0.77708,21249,64.588,266.42,10.019,243.73,0.41799,39.206
5,0.10245,0.83698,327.56,0.97203,21045,62.811,256.41,10.019,240.7,0.49408,59.528
6,0.15098,1.1972,389.66,1.1612,20891,60.251,246.39,10.019,238.01,0.55446,81.649
7,0.20918,1.6177,449.99,1.3475,20764,58.794,236.37,10.019,235.45,0.54841,104.73
8,0.27706,2.0969,508.9,1.5325,20659,57.52,226.35,10.019,233,0.53911,127.94
9,0.35468,2.6337,567.21,1.7191,20564,57.584,216.33,10.019,230.57,0.50744,150.75
10,0.44223,3.2282,625.94,1.9107,20472,58.359,206.31,10.019,228.1,0.47493,172.91
11,0.54001,3.8812,685.82,2.1103,20380,59.716,196.29,10.019,225.57,0.44526,194.1
12,0.64839,4.594,747.32,2.3201,20284,61.696,186.27,10.019,222.99,0.41849,213.88
13,0.76783,5.3687,811.34,2.5437,20175,64.72,176.25,10.019,220.26,0.38998,232.03
14,0.89897,6.2085,879.06,2.7861,20057,69.073,166.23,10.019,217.46,0.3591,248.44
15,1.0427,7.1177,951.97,3.0538,19932,74.889,156.22,10.019,214.61,0.32666,263.11
16,1.1951,8.0734,962.76,3.1287,0,-53.22,148.2,0,0,0.35554,244.3
17,1.3432,8.995,912.72,3.0044,0,-45.996,148.2,0,0,0.36807,196.71
18,1.4855,9.8707,869.11,2.8969,0,-40.504,148.2,0,0,0.38324,160.27
19,1.6228,10.706,830.59,2.8025,0,-35.955,148.2,0,0,0.39691,131.85
20,1.7558,11.506,796.33,2.6994,0,-32.007,148.2,0,0,0.4116,107.98
21,1.8851,12.273,765.82,2.596,0,-28.648,148.2,0,0,0.42657,88.473
22,2.0112,13.013,738.42,2.5031,0,-25.878,148.2,0,0,0.44001,73.204
23,2.1345,13.726,713.58,2.4189,0,-23.58,148.2,0,0,0.45219,61.093
24,2.2555,14.416,690.89,2.342,0,-21.662,148.2,0,0,0.46331,51.372
25,2.3743,15.084,669.99,2.2712,0,-20.053,148.2,0,0,0.47355,43.487
26,2.4913,15.732,650.6,2.2055,0,-18.696,148.2,0,0,0.48304,37.029
27,2.6067,16.362,632.49,2.1441,0,-17.544,148.2,0,0,0.49191,31.696
28,2.7207,16.974,615.47,2.0863,0,-16.562,148.2,0,0,0.50025,27.258
29,2.8334,17.57,599.37,2.0318,0,-15.722,148.2,0,0,0.50812,23.541
30,2.9449,18.149,584.07,1.9799,0,-15.008,148.2,0,0,0.51651,20.408
31,3.0555,18.714,569.44,1.9303,0,-14.404,148.2,0,0,0.52615,17.751
32,3.1651,19.265,555.4,1.8827,0,-13.878,148.2,0,0,0.5354,15.488
33,3.2739,19.802,541.86,1.8368,0,-13.417,148.2,0,0,0.54432,13.551
34,3.382,20.325,528.76,1.7924,0,-13.014,148.2,0,0,0.55294,11.886
35,3.4893,20.835,516.06,1.7494,0,-12.658,148.2,0,0,0.5613,10.451
36,3.5961,21.333,503.71,1.7075,0,-12.345,148.2,0,0,0.56943,9.2089
37,3.7023,21.818,491.66,1.6667,0,-12.069,148.2,0,0,0.57736,8.1308
38,3.808,22.291,479.89,1.6268,0,-11.824,148.2,0,0,0.58511,7.1921
39,3.9132,22.753,468.37,1.5877,0,-11.607,148.2,0,0,0.5927,6.3727
40,4.018,23.202,457.06,1.5494,0,-11.414,148.2,0,0,0.60014,5.6556
41,4.1224,23.641,445.95,1.5117,0,-11.243,148.2,0,0,0.60745,5.0265
42,4.2264,24.068,435.02,1.4746,0,-11.082,148.2,0,0,0.6112,4.4734
43,4.3301,24.484,424.25,1.4382,0,-10.936,148.2,0,0,0.61302,3.9863
44,4.4335,24.889,413.64,1.4022,0,-10.806,148.2,0,0,0.61482,3.5564
45,4.5366,25.283,403.18,1.365,0,-10.689,148.2,0,0,0.61667,3.1692
46,4.6395,25.667,392.84,1.3265,0,-10.583,148.2,0,0,0.6186,2.8193
47,4.7421,26.04,382.62,1.2887,0,-10.49,148.2,0,0,0.62049,2.5115
48,4.8446,26.403,372.5,1.2516,0,-10.407,148.2,0,0,0.62235,2.24
49,4.9468,26.755,362.49,1.215,0,-10.333,148.2,0,0,0.62417,2.0001
50,5.0488,27.097,352.57,1.1791,0,-10.268,148.2,0,0,0.62636,1.7877
51,5.1507,27.429,342.73,1.1437,0,-10.211,148.2,0,0,0.62884,1.5992
52,5.2525,27.75,332.97,1.1087,0,-10.159,148.2,0,0,0.63129,1.4317
53,5.3541,28.061,323.3,1.0743,0,-10.107,148.2,0,0,0.6239,1.2826
54,5.4555,28.362,313.7,1.0403,0,-10.058,148.2,0,0,0.61258,1.1497
55,5.5569,28.653,304.18,1.0069,0,-10.015,148.2,0,0,0.60033,1.031
56,5.6581,28.934,294.74,0.97383,0,-9.9688,148.2,0,0,0.56803,0.92498
57,5.7593,29.206,285.39,0.94126,0,-9.9283,148.2,0,0,0.53509,0.83011
58,5.8604,29.467,276.12,0.90913,0,-9.8936,148.2,0,0,0.5026,0.74511
59,5.9614,29.718,266.92,0.87743,0,-9.8688,148.2,0,0,0.48669,0.66885
60,6.0623,29.959,257.8,0.84613,0,-9.8494,148.2,0,0,0.47886,0.60034
61,6.1632,30.191,248.73,0.81516,0,-9.8534,148.2,0,0,0.55613,0.53866
62,6.264,30.413,239.74,0.78458,0,-9.8372,148.2,0,0,0.55469,0.48313
63,6.3648,30.625,230.83,0.75441,0,-9.8235,148.2,0,0,0.55832,0.43315
64,6.4655,30.827,222.02,0.72466,0,-9.8111,148.2,0,0,0.56189,0.38814
65,6.5662,31.019,213.3,0.69537,0,-9.7999,148.2,0,0,0.56559,0.34761
66,6.6668,31.201,204.7,0.66654,0,-9.7898,148.2,0,0,0.57064,0.3111
67,6.7674,31.374,196.21,0.63821,0,-9.7806,148.2,0,0,0.5756,0.27823
68,6.8679,31.537,187.86,0.61043,0,-9.7722,148.2,0,0,0.58046,0.24865
69,6.9684,31.69,179.66,0.58323,0,-9.7645,148.2,0,0,0.58523,0.22207
70,7.0689,31.833,171.64,0.55667,0,-9.7575,148.2,0,0,0.58988,0.1982
71,7.1693,31.967,163.81,0.53083,0,-9.7512,148.2,0,0,0.59441,0.17682
72,7.2697,32.091,156.2,0.50578,0,-9.7454,148.2,0,0,0.5988,0.15772
73,7.37,32.205,148.84,0.48162,0,-9.7402,148.2,0,0,0.60459,0.14071
74,7.4704,32.309,141.78,0.45848,0,-9.7355,148.2,0,0,0.61074,0.12563
75,7.5707,32.404,135.06,0.43648,0,-9.7313,148.2,0,0,0.61658,0.11233
76,7.6709,32.488,128.73,0.4158,0,-9.7274,148.2,0,0,0.62208,0.1007
77,7.7712,32.564,122.84,0.3966,0,-9.7239,148.2,0,0,0.62719,0.090625
78,7.8714,32.629,117.47,0.3791,0,-9.7208,148.2,0,0,0.63185,0.082016
79,7.9716,32.685,112.69,0.36354,0,-9.7179,148.2,0,0,0.636,0.074793
80,8.0718,32.731,108.56,0.35014,0,-9.7154,148.2,0,0,0.63958,0.068894
81,8.172,32.767,105.18,0.33916,0,-9.713,148.2,0,0,0.64252,0.064265
82,8.2721,32.793,102.61,0.33082,0,-9.7109,148.2,0,0,0.64476,0.060865
83,8.3722,32.81,100.92,0.32532,0,-9.7089,148.2,0,0,0.64626,0.058664
84,8.4723,32.817,100.14,0.3228,0,-9.707,148.2,0,0,0.64697,0.057643
85,8.5724,32.815,100.3,0.32332,0,-9.7052,148.2,0,0,0.64687,0.057792
86,8.6725,32.803,101.39,0.32687,0,-9.7034,148.2,0,0,0.64597,0.059112
87,8.7725,32.781,103.39,0.33335,0,-9.7015,148.2,0,0,0.64429,0.061614
88,8.8726,32.749,106.24,0.34259,0,-9.6995,148.2,0,0,0.64188,0.065319
89,8.9726,32.707,109.87,0.35439,0,-9.6973,148.2,0,0,0.63878,0.070259
90,9.0726,32.656,114.21,0.3685,0,-9.6949,148.2,0,0,0.63507,0.076477
91,9.1725,32.596,119.18,0.38468,0,-9.6924,148.2,0,0,0.63081,0.084027
92,9.2725,32.525,124.7,0.40269,0,-9.6895,148.2,0,0,0.62607,0.092973
93,9.3724,32.445,130.71,0.4223,0,-9.6864,148.2,0,0,0.62089,0.10339
94,9.4723,32.355,137.13,0.44331,0,-9.683,148.2,0,0,0.61534,0.11538
95,9.5721,32.256,143.92,0.46554,0,-9.6792,148.2,0,0,0.60947,0.12905
96,9.672,32.146,151.02,0.48884,0,-9.675,148.2,0,0,0.60331,0.14451
97,9.7718,32.028,158.39,0.51307,0,-9.6704,148.2,0,0,0.59795,0.16191
98,9.8716,31.899,165.99,0.53812,0,-9.6652,148.2,0,0,0.59358,0.18141
99,9.9713,31.761,173.79,0.5639,0,-9.6595,148.2,0,0,0.58907,0.20318
100,10.071,31.613,181.76,0.59032,0,-9.6532,148.2,0,0,0.58446,0.22744
101,10.171,31.455,189.88,0.61731,0,-9.6464,148.2,0,0,0.57974,0.25441
102,10.27,31.288,198.14,0.64482,0,-9.6388,148.2,0,0,0.57493,0.28435
103,10.37,31.111,206.5,0.67279,0,-9.6305,148.2,0,0,0.57004,0.31756
104,10.469,30.925,214.96,0.70119,0,-9.6214,148.2,0,0,0.56508,0.35437
105,10.569,30.729,223.51,0.72998,0,-9.6112,148.2,0,0,0.5616,0.39513
106,10.668,30.523,232.13,0.75913,0,-9.5999,148.2,0,0,0.55811,0.44028
107,10.768,30.308,240.81,0.7886,0,-9.5875,148.2,0,0,0.55457,0.49028
108,10.867,30.083,249.54,0.81838,0,-9.5724,148.2,0,0,0.55617,0.54565
109,10.966,29.849,258.34,0.84849,0,-9.5783,148.2,0,0,0.47869,0.60703
110,11.066,29.605,267.17,0.87891,0,-9.5604,148.2,0,0,0.48628,0.67511
111,11.165,29.351,276.04,0.90957,0,-9.538,148.2,0,0,0.49987,0.75059
112,11.264,29.088,284.92,0.94044,0,-9.5055,148.2,0,0,0.53107,0.83426
113,11.363,28.815,293.81,0.9715,0,-9.4678,148.2,0,0,0.56245,0.92704
114,11.462,28.533,302.69,1.0027,0,-9.4244,148.2,0,0,0.59333,1.03
115,11.561,28.242,311.56,1.0341,0,-9.3825,148.2,0,0,0.6094,1.1442
116,11.659,27.941,320.42,1.0656,0,-9.3383,148.2,0,0,0.6199,1.2711
117,11.758,27.631,329.25,1.0972,0,-9.2883,148.2,0,0,0.63044,1.4123
118,11.856,27.311,338.07,1.129,0,-9.2401,148.2,0,0,0.63011,1.5693
119,11.955,26.982,346.85,1.1608,0,-9.1879,148.2,0,0,0.62787,1.7442
120,12.053,26.644,355.6,1.1928,0,-9.1298,148.2,0,0,0.62564,1.9392
121,12.151,26.297,364.31,1.2249,0,-9.0646,148.2,0,0,0.62385,2.1567
122,12.248,25.941,372.96,1.257,0,-8.9917,148.2,0,0,0.62225,2.3996
123,12.346,25.576,381.56,1.2892,0,-8.9103,148.2,0,0,0.62064,2.6709
124,12.443,25.202,390.08,1.3214,0,-8.8195,148.2,0,0,0.61903,2.9742
125,12.541,24.819,398.53,1.3509,0,-8.7215,148.2,0,0,0.61754,3.3015
126,12.637,24.428,406.88,1.3793,0,-8.6144,148.2,0,0,0.61613,3.6588
127,12.734,24.028,415.13,1.4072,0,-8.4959,148.2,0,0,0.61473,4.0549
128,12.83,23.619,423.27,1.4348,0,-8.3647,148.2,0,0,0.61335,4.4939
129,12.926,23.202,431.28,1.462,0,-8.2194,148.2,0,0,0.61199,4.9803
130,13.022,22.777,439.15,1.4886,0,-8.0585,148.2,0,0,0.61065,5.5191
131,13.117,22.344,446.85,1.5148,0,-7.8863,148.2,0,0,0.60747,6.1157
132,13.212,21.903,454.39,1.5403,0,-7.7026,148.2,0,0,0.6025,6.7762
133,13.306,21.454,461.74,1.5652,0,-7.5005,148.2,0,0,0.59766,7.5069
134,13.4,20.997,468.89,1.5895,0,-7.2783,148.2,0,0,0.59296,8.3148
135,13.494,20.534,475.81,1.6129,0,-7.0342,148.2,0,0,0.5884,9.2072
136,13.587,20.063,482.48,1.6355,0,-6.7662,148.2,0,0,0.58401,10.192
137,13.679,19.586,488.87,1.6572,0,-6.4721,148.2,0,0,0.5798,11.277
138,13.771,19.102,494.96,1.6778,0,-6.1498,148.2,0,0,0.57578,12.471
139,13.862,18.612,500.72,1.6974,0,-5.7969,148.2,0,0,0.57199,13.782
140,13.952,18.117,506.11,1.7156,0,-5.411,148.2,0,0,0.56843,15.219
141,14.042,17.616,511.1,1.7325,0,-4.9898,148.2,0,0,0.56514,16.79
142,14.13,17.109,515.65,1.748,0,-4.5307,148.2,0,0,0.56213,18.503
143,14.218,16.599,519.72,1.7618,0,-4.0315,148.2,0,0,0.55943,20.366
144,14.305,16.084,523.28,1.7738,0,-3.49,148.2,0,0,0.55708,22.383
145,14.39,15.566,526.28,1.784,0,-2.904,148.2,0,0,0.55509,24.56
146,14.475,15.045,528.66,1.7921,0,-2.2721,148.2,0,0,0.5535,26.897
147,14.558,14.522,530.4,1.798,0,-1.5929,148.2,0,0,0.55234,29.394
148,14.64,13.998,531.43,1.8015,0,-0.86602,148.2,0,0,0.55164,32.046
149,14.721,13.472,531.71,1.8024,0,-0.091654,148.2,0,0,0.55143,34.844
150,14.8,12.947,531.19,1.8007,0,0.72894,148.2,0,0,0.55174,37.774
151,14.878,12.422,529.83,1.796,0,1.5933,148.2,0,0,0.55261,40.817
152,14.954,11.899,527.58,1.7884,0,2.4976,148.2,0,0,0.55405,43.947
153,15.028,11.378,524.41,1.7777,0,3.4362,148.2,0,0,0.5561,47.131
154,15.1,10.861,520.3,1.7596,0,4.3628,148.2,0,0,0.55945,50.132
155,15.171,10.348,515.32,1.7296,0,5.175,148.2,0,0,0.56525,52.465
156,15.239,9.8409,509.54,1.6976,0,5.9654,148.2,0,0,0.57143,54.637
157,15.305,9.3394,502.99,1.6638,0,6.7239,148.2,0,0,0.57798,56.617
158,15.369,8.8447,495.7,1.6282,0,7.4408,148.2,0,0,0.58486,58.377
159,15.431,8.3575,487.72,1.5912,0,8.1064,148.2,0,0,0.59203,59.894
160,15.491,7.8783,479.1,1.5528,0,8.7122,148.2,0,0,0.59947,61.15
161,15.548,7.408,469.92,1.5133,0,9.2509,148.2,0,0,0.60711,62.133
162,15.603,6.9468,460.26,1.4731,0,9.6029,148.2,0,0,0.61127,62.846
163,15.656,6.4953,450.35,1.4328,0,9.8184,148.2,0,0,0.61328,63.327
164,15.706,6.0536,440.27,1.3926,0,9.9673,148.2,0,0,0.61529,63.592
165,15.754,5.6219,430.07,1.3527,0,10.053,148.2,0,0,0.61728,63.651
166,15.8,5.2002,419.82,1.3134,0,10.078,148.2,0,0,0.61925,63.521
167,15.844,4.7886,409.59,1.2747,0,10.048,148.2,0,0,0.62119,63.218
168,15.886,4.3871,399.41,1.2368,0,9.9682,148.2,0,0,0.62309,62.762
169,15.926,3.9954,389.35,1.1997,0,9.8434,148.2,0,0,0.62494,62.17
170,15.963,3.6137,379.43,1.1637,0,9.7001,148.2,0,0,0.62744,61.46
171,15.999,3.2416,369.67,1.1286,0,9.5207,148.2,0,0,0.6299,60.647
172,16.033,2.879,360.12,1.0947,0,9.2615,148.2,0,0,0.63067,59.749
173,16.065,2.5257,351.03,1.0625,0,8.6613,148.2,0,0,0.61992,58.855
174,16.096,2.1809,342.52,1.0325,0,8.1117,148.2,0,0,0.60989,58.026
175,16.125,1.8443,334.56,1.0045,0,7.5292,148.2,0,0,0.59779,57.26
176,16.153,1.5151,327.37,0.97912,0,6.6365,148.2,0,0,0.57294,56.645
177,16.179,1.1925,321.02,0.95655,0,5.8675,148.2,0,0,0.54999,56.229
178,16.204,0.87573,315.39,0.93634,0,5.2209,148.2,0,0,0.52946,55.983
179,16.228,0.56417,310.37,0.91814,0,4.6733,148.2,0,0,0.51096,55.88
180,16.25,0.25728,305.85,0.90164,0,4.2067,148.2,0,0,0.4942,55.9
